time,setpoint,control,velocity
167.7689971923828,0.9972764253616333,0.5078586339950562,0.8636975884437561
167.83900451660156,0.9999939203262329,0.49810850620269775,0.8754899501800537
167.91000366210938,0.9977865219116211,0.48184168338775635,0.8849238753318787
167.97900390625,0.9906905293464661,0.47484883666038513,0.8852344155311584
168.0489959716797,0.9787505865097046,0.44888758659362793,0.8891011476516724
168.11900329589844,0.9620248675346375,0.4323570728302002,0.884958028793335
168.18899536132812,0.9405270218849182,0.41013506054878235,0.878025233745575
168.25900268554688,0.9145021438598633,0.3836095929145813,0.8688607215881348
168.32899475097656,0.8840062022209167,0.3520445227622986,0.8579108119010925
168.3990020751953,0.8491016626358032,0.3222622871398926,0.8419144153594971
168.468994140625,0.8101328015327454,0.29160282015800476,0.8218806982040405
168.53900146484375,0.7670828104019165,0.2660030722618103,0.7949988842010498
168.60899353027344,0.7203184962272644,0.24239251017570496,0.7626386880874634
168.6790008544922,0.6701405644416809,0.21226659417152405,0.729513943195343
168.74099731445312,0.624367892742157,0.2369435876607895,0.6740679144859314
168.8090057373047,0.5681701302528381,0.1928558349609375,0.6369476914405823
168.87899780273438,0.5091981291770935,0.1610289067029953,0.5963966846466064
168.94900512695312,0.4477873742580414,0.12900762259960175,0.5531010627746582
169.0189971923828,0.3841652572154999,0.103633813560009,0.5039914846420288
169.08900451660156,0.31852787733078003,0.08173451572656631,0.4502307176589966
169.15899658203125,0.2516971230506897,0.07090059667825699,0.38913074135780334
169.22900390625,0.18323640525341034,0.06604644656181335,0.32215940952301025
169.2989959716797,0.11426787823438644,0.05326512083411217,0.2577275335788727
169.36900329589844,0.04423868656158447,0.013254111632704735,0.20618201792240143
169.43899536132812,-0.02586047165095806,0.062191400676965714,0.16494561731815338
169.50900268554688,-0.09560085833072662,0.2574164569377899,0.13195650279521942
169.57899475097656,-0.16498707234859467,-0.3876270651817322,-0.11642001569271088
169.6490020751953,-0.23354054987430573,-0.460749089717865,-0.1329369992017746
169.718994140625,-0.30101752281188965,-0.4576210379600525,-0.1931881457567215
169.78900146484375,-0.3669339716434479,-0.4278223216533661,-0.27395349740982056
169.8509979248047,-0.42199158668518066,-0.42450034618377686,-0.33494752645492554
169.91900634765625,-0.4842741787433624,-0.4054499566555023,-0.4090706408023834
169.98899841308594,-0.5445570945739746,-0.3997504413127899,-0.47560569643974304
170.05999755859375,-0.6017414331436157,-0.41235122084617615,-0.5288336873054504
170.12899780273438,-0.6561241149902344,-0.43691039085388184,-0.5714161396026611
170.1909942626953,-0.7002265453338623,-0.4771409034729004,-0.5946272611618042
170.25900268554688,-0.748460590839386,-0.4954471290111542,-0.6312875151634216
170.32899475097656,-0.7929863929748535,-0.5031487345695496,-0.6714705228805542
170.3990020751953,-0.8336172103881836,-0.514935314655304,-0.7072352170944214
170.468994140625,-0.8702556490898132,-0.5183843970298767,-0.7430834770202637
170.53900146484375,-0.9025393128395081,-0.5292015671730042,-0.7717621922492981
170.60899353027344,-0.9305092096328735,-0.5271976590156555,-0.8019415736198425
170.6790008544922,-0.9538329243659973,-0.5302742123603821,-0.8260851502418518
170.74899291992188,-0.97251296043396,-0.5331459641456604,-0.8453999757766724
170.81900024414062,-0.9863555431365967,-0.5266011953353882,-0.8644701838493347
170.88900756835938,-0.995476245880127,-0.5198939442634583,-0.8797262907028198
170.96099853515625,-0.999685525894165,-0.5022443532943726,-0.895549476146698
171.0290069580078,-0.9989906549453735,-0.5049418210983276,-0.8973532319068909
171.0989990234375,-0.9934006929397583,-0.48736852407455444,-0.9024144411087036
171.16900634765625,-0.9829506278038025,-0.47227051854133606,-0.9028452038764954
171.23899841308594,-0.9676528573036194,-0.44727206230163574,-0.9031897783279419
171.3090057373047,-0.9477020502090454,-0.4217482805252075,-0.899847149848938
171.37899780273438,-0.9230291247367859,-0.399859756231308,-0.8899365067481995
171.44900512695312,-0.8938455581665039,-0.3709547817707062,-0.8783897161483765
171.5189971923828,-0.8602988719940186,-0.33647048473358154,-0.8655340075492859
171.59100341796875,-0.8224503993988037,-0.30332523584365845,-0.8480129241943359
171.65899658203125,-0.7807610630989075,-0.2912396788597107,-0.8159046769142151
171.72900390625,-0.7351599335670471,-0.26093629002571106,-0.78659987449646
171.79100036621094,-0.6931007504463196,-0.27219322323799133,-0.741446316242218
171.85899353027344,-0.6410661339759827,-0.23720423877239227,-0.7053234577178955
171.9290008544922,-0.5857840180397034,-0.19542710483074188,-0.6728069186210632
171.99899291992188,-0.5276901721954346,-0.16617928445339203,-0.6323206424713135
172.0709991455078,-0.4669572412967682,-0.12723548710346222,-0.5926950573921204
172.13900756835938,-0.403834730386734,-0.11953514814376831,-0.5356667041778564
172.20899963378906,-0.3390267789363861,-0.10110707581043243,-0.4791891872882843
172.2790069580078,-0.27241623401641846,-0.08611488342285156,-0.4195340573787689
172.3489990234375,-0.20445260405540466,-0.08012270927429199,-0.3537186086177826
172.41900634765625,-0.13545675575733185,-0.07270713150501251,-0.28659313917160034
172.48899841308594,-0.0657365471124649,-0.0437459833920002,-0.22927451133728027
172.55999755859375,0.004114189185202122,-0.0,-0.1834196150302887
172.62899780273438,0.07405637949705124,-0.0,-0.14673568308353424
172.69900512695312,0.14362779259681702,-0.2276959866285324,-0.11738855391740799
172.7689971923828,0.21247698366641998,-0.35430410504341125,-0.10476565361022949
172.83900451660156,0.280065655708313,0.4385806620121002,0.11637697368860245
172.90899658203125,0.3467433452606201,0.44945815205574036,0.1690853089094162
172.97900390625,0.411576509475708,0.4291073679924011,0.24381640553474426
173.0489959716797,0.4742594063282013,0.4072568714618683,0.32169264554977417
173.11900329589844,0.5346617102622986,0.3920215964317322,0.39484846591949463
173.18099975585938,0.5843846797943115,0.40548521280288696,0.44251832365989685
173.25,0.6397353410720825,0.4144856333732605,0.49512726068496704
173.31900024414062,0.6918557286262512,0.4307495355606079,0.5408326983451843
173.38900756835938,0.7407776713371277,0.4504551291465759,0.5810152888298035
173.4600067138672,0.7858845591545105,0.46337246894836426,0.6203979253768921
173.5290069580078,0.8272256851196289,0.4713221490383148,0.6591406464576721
173.5989990234375,0.8644276261329651,0.48792722821235657,0.6901347637176514
173.66900634765625,0.8974889516830444,0.4927627444267273,0.7221665978431702
173.73899841308594,0.9262226819992065,0.5039203763008118,0.7477920651435852
173.8090057373047,0.9502848982810974,0.5079153180122375,0.7719107866287231
173.87899780273438,0.9697065353393555,0.5062013268470764,0.794823944568634
173.94900512695312,0.9844326972961426,0.5055275559425354,0.8131544589996338
174.0189971923828,0.994316041469574,0.4950568974018097,0.8314371705055237
174.08900451660156,0.9993264675140381,0.491128146648407,0.8424450755119324
174.15899658203125,0.9994474649429321,0.48060232400894165,0.8512514233589172
174.22999572753906,0.9946626424789429,0.4571625888347626,0.8619147539138794
174.2989959716797,0.9850178360939026,0.445118248462677,0.8632088899612427
174.36900329589844,0.9705328941345215,0.4216419458389282,0.8642442226409912
174.43899536132812,0.9512590765953064,0.4049217998981476,0.8578358888626099
174.51100158691406,0.9274243712425232,0.3675481677055359,0.8563275337219238
174.57899475097656,0.8989967703819275,0.3527335226535797,0.8406477570533752
174.6490020751953,0.8661481738090515,0.3257095217704773,0.8244856595993042
174.718994140625,0.8290974497795105,0.29201340675354004,0.8079376816749573
174.78900146484375,0.787839412689209,0.2660045623779297,0.783844530582428
174.86000061035156,0.7429404854774475,0.2430083006620407,0.7537150979042053
174.9290008544922,0.6944704055786133,0.21381880342960358,0.7223750948905945
174.99899291992188,0.642254650592804,0.19411230087280273,0.6828299760818481
175.06900024414062,0.5871059894561768,0.17226804792881012,0.6403390765190125
175.13900756835938,0.5289110541343689,0.14863909780979156,0.5954914689064026
175.20899963378906,0.46832069754600525,0.13854002952575684,0.5415220856666565
175.2790069580078,0.4053933918476105,0.12093157321214676,0.4874917268753052
175.3489990234375,0.3405020236968994,0.10007846355438232,0.43341264128685
175.41900634765625,0.27390068769454956,0.09096525609493256,0.3720580041408539
175.48899841308594,0.20606699585914612,0.08143704384565353,0.3085012435913086
175.5590057373047,0.13713723421096802,0.05070871114730835,0.2540375292301178
175.62899780273438,0.06752463430166245,0.014813794754445553,0.20323002338409424
175.69900512695312,-0.002529657445847988,0.0,0.16258402168750763
175.7689971923828,-0.07247498631477356,0.0,0.13006721436977386
175.83999633789062,-0.14217348396778107,0.21560436487197876,0.10405376553535461
175.90899658203125,-0.2109382599592209,-0.3382662236690521,-0.09409783035516739
175.97900390625,-0.2788178324699402,-0.42017656564712524,-0.10784271359443665
176.0489959716797,-0.3452761173248291,-0.4280994236469269,-0.16225789487361908
176.11900329589844,-0.4100935161113739,-0.4132210314273834,-0.23473621904850006
176.18899536132812,-0.472995787858963,-0.39480745792388916,-0.31081023812294006
176.25999450683594,-0.533353328704834,-0.38923317193984985,-0.3789059817790985
176.32899475097656,-0.5912241339683533,-0.3891618847846985,-0.4406191408634186
176.3990020751953,-0.6460660696029663,-0.3989788591861725,-0.49360793828964233
176.468994140625,-0.6979878544807434,-0.41481369733810425,-0.5396172404289246
176.53900146484375,-0.7462238073348999,-0.4330545961856842,-0.5800429582595825
176.60899353027344,-0.7910357713699341,-0.44554266333580017,-0.6196200847625732
176.6790008544922,-0.8318647742271423,-0.45251068472862244,-0.6585183143615723
176.74899291992188,-0.8686900734901428,-0.47586843371391296,-0.6860186457633972
176.81900024414062,-0.9011996388435364,-0.49160733819007874,-0.7116371989250183
176.88900756835938,-0.9292222261428833,-0.4951289892196655,-0.7393685579299927
176.9510040283203,-0.9497309923171997,-0.5340306162834167,-0.7434622645378113
177.0189971923828,-0.9693470597267151,-0.5227543711662292,-0.7684469223022461
177.08900451660156,-0.9841737151145935,-0.4984166920185089,-0.7992894053459167
177.15899658203125,-0.9941378831863403,-0.4878537654876709,-0.8203451037406921
177.22900390625,-0.9992650747299194,-0.4737178683280945,-0.8371896743774414
177.2989959716797,-0.9994955062866211,-0.4490341246128082,-0.8542836308479309
177.36900329589844,-0.9948376417160034,-0.43761003017425537,-0.8607222437858582
177.43899536132812,-0.9853053689002991,-0.4236103594303131,-0.8622548580169678
177.50900268554688,-0.9709542989730835,-0.4074512720108032,-0.8598626852035522
177.57899475097656,-0.9518142342567444,-0.3879431486129761,-0.8543307185173035
177.6490020751953,-0.9280639886856079,-0.3717721402645111,-0.8426685333251953
177.718994140625,-0.8996909856796265,-0.34785643219947815,-0.8297205567359924
177.78900146484375,-0.8670098185539246,-0.31815534830093384,-0.8157439231872559
177.86000061035156,-0.8299784660339355,-0.29673483967781067,-0.7937077879905701
177.9290008544922,-0.7889437675476074,-0.2709975838661194,-0.7688422799110413
177.99899291992188,-0.7440193891525269,-0.2419435679912567,-0.7417133450508118
178.06100463867188,-0.7026112675666809,-0.2605454623699188,-0.6946823000907898
178.1300048828125,-0.6512078642845154,-0.2232186496257782,-0.6606757044792175
178.1999969482422,-0.5965085625648499,-0.18877054750919342,-0.6262339353561401
178.27000427246094,-0.5388439893722534,-0.14954636991024017,-0.5914439558982849
178.33900451660156,-0.4787140488624573,-0.12827882170677185,-0.5455206036567688
178.40899658203125,-0.4159822165966034,-0.10857147723436356,-0.49430885910987854
178.47900390625,-0.35135918855667114,-0.09219320863485336,-0.43886637687683105
178.5489959716797,-0.2850834131240845,-0.0854644924402237,-0.3764210045337677
178.61900329589844,-0.21731388568878174,-0.07747600972652435,-0.3119916319847107
178.69000244140625,-0.14839453995227814,-0.055388957262039185,-0.2532115876674652
178.75900268554688,-0.07910971343517303,-0.01845589093863964,-0.20256926119327545
178.82899475097656,-0.009084486402571201,-0.0,-0.16205541789531708
178.8990020751953,0.06068683788180351,-0.0,-0.12964433431625366
178.968994140625,0.1305878907442093,-0.22004899382591248,-0.10371547192335129
179.03900146484375,0.19975045323371887,0.3576865792274475,0.08659064769744873
179.10899353027344,0.2676321566104889,0.4407613277435303,0.09821869432926178
179.17100524902344,0.3248763978481293,0.44721317291259766,0.1437038630247116
179.23899841308594,0.3902103304862976,0.43325376510620117,0.2162747085094452
179.3090057373047,0.45373326539993286,0.40104740858078003,0.2996593117713928
179.37899780273438,0.5149180889129639,0.3877128064632416,0.373603492975235
179.44900512695312,0.5735689401626587,0.3813415467739105,0.4399954378604889
179.5189971923828,0.6295356750488281,0.394237220287323,0.49310895800590515
179.58900451660156,0.6822571754455566,0.41795703768730164,0.5355997681617737
179.65899658203125,0.7315707802772522,0.43467584252357483,0.5768289566040039
179.72900390625,0.7776852250099182,0.4553951323032379,0.6134306788444519
179.7989959716797,0.819679856300354,0.4749806523323059,0.6463302373886108
179.86900329589844,0.8577427268028259,0.49303674697875977,0.6762681603431702
179.93899536132812,0.8917105793952942,0.500876247882843,0.7074550986289978
180.00900268554688,0.9210888147354126,0.5069369077682495,0.7360228300094604
180.07899475097656,0.9461002349853516,0.5018535256385803,0.7661136388778687
180.1490020751953,0.9664327502250671,0.5090376138687134,0.7865679860115051
180.218994140625,0.9820366501808167,0.5055952072143555,0.8065497279167175
180.281005859375,0.9915794730186462,0.5289129018783569,0.8080620169639587
180.3489990234375,0.9982019066810608,0.5201584100723267,0.8201267123222351
180.41900634765625,0.9999521374702454,0.4969472587108612,0.8370150327682495
180.48899841308594,0.9967808723449707,0.4666813015937805,0.8541439175605774
180.5590057373047,0.9887510538101196,0.44965294003486633,0.8606104254722595
180.6300048828125,0.9759103655815125,0.4227273464202881,0.86578369140625
180.6999969482422,0.9582644701004028,0.4037044048309326,0.8626857399940491
180.7689971923828,0.9358909130096436,0.3793487548828125,0.856589138507843
180.83900451660156,0.9089576005935669,0.3508099615573883,0.848093569278717
180.90899658203125,0.8775933980941772,0.3321737051010132,0.8304423093795776
180.97900390625,0.8419228196144104,0.31001806259155273,0.8090847134590149
181.0489959716797,0.8020256757736206,0.27776700258255005,0.7883803844451904
181.11900329589844,0.7584207653999329,0.2529945969581604,0.7609621286392212
181.18899536132812,0.711085855960846,0.2225206196308136,0.7317909598350525
181.25900268554688,0.6600366234779358,0.2022893726825714,0.6939809322357178
181.32899475097656,0.6058247685432434,0.179955393075943,0.6528781056404114
181.39100646972656,0.5570785999298096,0.1956542283296585,0.5982862114906311
181.45899963378906,0.4976622760295868,0.16012181341648102,0.5546126961708069
181.5290069580078,0.4356653392314911,0.1318177580833435,0.508819043636322
181.6009979248047,0.37155693769454956,0.10236851125955582,0.4613293409347534
181.66900634765625,0.3059190809726715,0.08692675083875656,0.40524619817733765
181.73899841308594,0.23857377469539642,0.07151725888252258,0.3459065854549408
181.80099487304688,0.17978718876838684,0.07056554406881332,0.28758010268211365
181.86900329589844,0.11053731292486191,0.043696075677871704,0.23006407916545868
181.93899536132812,0.04093261435627937,0.0,0.1840512603521347
182.00100708007812,-0.019078517332673073,0.03550420328974724,0.14724101126194
182.06900024414062,-0.08894002437591553,0.2272755652666092,0.11779280751943588
182.13900756835938,-0.15843093395233154,-0.3608863353729248,-0.10147079080343246
182.1999969482422,-0.21732941269874573,-0.4229251742362976,-0.11374108493328094
182.2689971923828,-0.28493762016296387,-0.4365581274032593,-0.16697658598423004
182.33900451660156,-0.3512847423553467,-0.42381733655929565,-0.23851117491722107
182.39999389648438,-0.4068449139595032,-0.4185454249382019,-0.2993571162223816
182.468994140625,-0.46973609924316406,-0.4013240337371826,-0.3733617663383484
182.53900146484375,-0.5303006172180176,-0.3893878161907196,-0.44342029094696045
182.6009979248047,-0.5803548097610474,-0.42035219073295593,-0.4813757836818695
182.66900634765625,-0.6359496116638184,-0.4256293475627899,-0.5334497690200806
182.73899841308594,-0.6883796453475952,-0.44916075468063354,-0.5751090049743652
182.80099487304688,-0.7305433750152588,-0.4882236421108246,-0.5975815653800964
182.86900329589844,-0.7766356468200684,-0.4973374307155609,-0.6372691988945007
182.93899536132812,-0.8186925053596497,-0.49784398078918457,-0.6798741221427917
183.00100708007812,-0.8516597747802734,-0.5366862416267395,-0.6958667635917664
183.07000732421875,-0.8862176537513733,-0.5346801280975342,-0.7303704619407654
183.13900756835938,-0.9164829850196838,-0.5300483107566833,-0.765209972858429
183.2010040283203,-0.9388294816017151,-0.5619255900382996,-0.7749902606010437
183.2689971923828,-0.9605865478515625,-0.5460273623466492,-0.8045241236686707
183.33900451660156,-0.9776923656463623,-0.5185465216636658,-0.8390060067176819
183.4029998779297,-0.988528311252594,-0.547071635723114,-0.8412635922431946
183.468994140625,-0.996669590473175,-0.5315383076667786,-0.8575427532196045
183.53900146484375,-0.9999304413795471,-0.5044592618942261,-0.8778026103973389
183.6009979248047,-0.9988284111022949,-0.5311991572380066,-0.8686826229095459
183.6699981689453,-0.9929831027984619,-0.4981158375740051,-0.8794779777526855
183.73899841308594,-0.9823203086853027,-0.46900010108947754,-0.8881142735481262
183.80099487304688,-0.9693099856376648,-0.4831801950931549,-0.8733136653900146
183.86900329589844,-0.9497048854827881,-0.44020143151283264,-0.8759462833404541
183.94000244140625,-0.9254884719848633,-0.39052945375442505,-0.8816706538200378
184.00100708007812,-0.901069164276123,-0.4037134349346161,-0.8573039770126343
184.06900024414062,-0.8685256242752075,-0.35652032494544983,-0.8486654162406921
184.13900756835938,-0.8318728804588318,-0.31364700198173523,-0.8381363749504089
184.2010040283203,-0.7970122694969177,-0.3216564357280731,-0.8043851852416992
184.2689971923828,-0.75287264585495,-0.27239733934402466,-0.7846207618713379
184.33900451660156,-0.7049449682235718,-0.23068931698799133,-0.7615727186203003
184.4010009765625,-0.661193311214447,-0.2389722317457199,-0.717806339263916
184.468994140625,-0.6072517037391663,-0.19884304702281952,-0.6827932596206665
184.53900146484375,-0.5501024127006531,-0.16703175008296967,-0.6439279317855835
184.6009979248047,-0.49888041615486145,-0.17473755776882172,-0.5911261439323425
184.66900634765625,-0.4370621144771576,-0.13894252479076385,-0.545266330242157
184.72999572753906,-0.38243526220321655,-0.14238899946212769,-0.49048715829849243
184.80099487304688,-0.31682053208351135,-0.10954014956951141,-0.43942728638648987
184.86900329589844,-0.24963386356830597,-0.08025150746107101,-0.38772454857826233
184.93899536132812,-0.18134933710098267,-0.05703037977218628,-0.331889271736145
185.00100708007812,-0.12192104756832123,-0.06425639986991882,-0.2691296935081482
185.06900024414062,-0.05218120664358139,-0.026202432811260223,-0.21530374884605408
185.13900756835938,0.017639977857470512,-0.04496892914175987,-0.17224299907684326
185.2010040283203,0.07771243155002594,0.2141105681657791,0.1450309455394745
